INDEX VERSION 1.131+/home/anantharaman/Downloads/eclipse-workspace/.metadata/.plugins/org.eclipse.jdt.core
3810673164.index
2070463228.index
2898550320.index
3464481833.index
2243460444.index
1045774832.index
1229985980.index
2450273013.index
141299300.index
1786711050.index
2794512850.index
1711547075.index
1839881441.index
1244348661.index
1809924273.index
445614618.index
3495767552.index
3788389270.index
3562492460.index
2315117598.index
3742278770.index
3407214572.index
3510179330.index
1495325117.index
1439214615.index
530988832.index
1026002354.index
683798016.index
3318999517.index
2179390457.index
3808757581.index
2055771488.index
2500371298.index
1866890653.index
3782758906.index
288688277.index
4067210606.index
783636038.index
3327516728.index
160096773.index
205985607.index
3473235868.index
3070205539.index
3964583246.index
65375195.index
411816776.index
2974040153.index
2262369427.index
3037021946.index
3043071694.index
1568840209.index
1746915766.index
575539146.index
3598734078.index
2247840252.index
2116833064.index
689772809.index
1676316482.index
932080653.index
1564422847.index
3982713691.index
2835911186.index
353372056.index
141163159.index
3686604237.index
1408357612.index
4266549093.index
2291792751.index
3422324318.index
443925906.index
4063961896.index
1336991101.index
1490509373.index
2967812652.index
2467627471.index
430274834.index
3906499509.index
2499275996.index
1312505066.index
908719012.index
1060336119.index
494436447.index
3325221006.index
1655170880.index
1286342038.index
1017045428.index
2416006922.index
3632426160.index
667178842.index
157150674.index
4231221653.index
1382547823.index
3566164920.index
3322022252.index
3703194086.index
4181365444.index
1222234284.index
471758061.index
1525401242.index
3517680947.index
983458772.index
882609021.index
1531229883.index
2152605376.index
1696283435.index
587969927.index
3010541421.index
3527448331.index
2386498868.index
1639870041.index
44601678.index
3274195733.index
3475871815.index
2465504473.index
1610936522.index
3313684131.index
3140531471.index
3609467663.index
3735261066.index
466741897.index
2258362734.index
2829812957.index
2436578244.index
2970460765.index
2523982269.index
1344386031.index
2064005207.index
1028655330.index
3930385572.index
3283115977.index
3842837171.index
779158707.index
466016455.index
2211532551.index
1226699688.index
2090826735.index
2909755791.index
213332925.index
4144200268.index
3057000874.index
2973643067.index
304740479.index
4245325694.index
4068444078.index
576784214.index
971298147.index
4078283488.index
3297963879.index
897683543.index
2986457814.index
2792876864.index
1448691507.index
2621704776.index
1412458341.index
4135175090.index
2324197757.index
3031721362.index
1403533982.index
1326970531.index
1229013180.index
698513695.index
1625039343.index
3006547095.index
523863446.index
3995657314.index
2117072333.index
2316037672.index
1176800839.index
1518699442.index
67061609.index
3303067472.index
137521508.index
3921964755.index
145646221.index
3389637212.index
2689517313.index
767307279.index
435545816.index
2890612080.index
3439061546.index
4236236478.index
4227900289.index
1351314583.index
3432691949.index
3335279769.index
1154713944.index
1623106785.index
1835450258.index
3759752048.index
306946798.index
2824308746.index
518155142.index
2676652794.index
4196707376.index
1351173248.index
1796136776.index
2173641316.index
1311433517.index
646308851.index
1165995372.index
4023187387.index
607675604.index
841858830.index
656520861.index
1573700684.index
1916063292.index
58192984.index
3453345365.index
3700847633.index
1304456084.index
611022187.index
3477024452.index
4227450162.index
771972602.index
2992897977.index
87137132.index
2461744113.index
4239981545.index
714118648.index
302198725.index
3219515244.index
1250119808.index
290735033.index
1641684231.index
1434412651.index
3637515584.index
3060492793.index
2404078558.index
2761769797.index
1256428956.index
2619538734.index
1093576337.index
44035563.index
3880775548.index
3307816174.index
432610634.index
3286647177.index
3858702179.index
3912392881.index
2591090828.index
1089180952.index
3675068207.index
3482461347.index
2573770747.index
1846567375.index
266681678.index
1558776584.index
2843657596.index
3762134660.index
2865573425.index
2181240837.index
1109968106.index
692947754.index
2731725129.index
1326276719.index
1781844375.index
1605086909.index
1726738543.index
4068730077.index
602555048.index
1074400643.index
3463336952.index
1406812029.index
3321824979.index
1126091223.index
253632009.index
1801016654.index
3043650588.index
3367693110.index
3101576361.index
1411922947.index
3501852753.index
2051491323.index
2779335625.index
613581834.index
3006086969.index
3211952320.index
3425110771.index
866824132.index
1536274886.index
3937265331.index
4120705256.index
3335928293.index
2146355240.index
1329810499.index
4134479951.index
2291304207.index
20813936.index
3436042180.index
708290278.index
2129720186.index
688528248.index
761799330.index
1648005563.index
2704988179.index
3400210778.index
2246307269.index
902067284.index
1119780207.index
3108466389.index
1297827706.index
199618570.index
1882996132.index
3982439400.index
1448304769.index
1936250064.index
4133239217.index
169738618.index
910702670.index
1304666533.index
472449070.index
1177422502.index
4107773917.index
1896676299.index
3930322972.index
3518218556.index
281492098.index
2227495706.index
3151980422.index
1040730491.index
3037474557.index
2552532262.index
3706308780.index
2433059238.index
876481119.index
2759302132.index
975040830.index
2476335281.index
3933873243.index
3232300032.index
1498114571.index
2356393189.index
1225641327.index
355174341.index
2906610169.index
53090231.index
2287138628.index
56647215.index
2238375867.index
1152583833.index
348717242.index
355893993.index
1077538520.index
2575995244.index
3539141175.index
2378647442.index
349824341.index
1556471044.index
1891889003.index
1790614631.index
381274793.index
1060990681.index
1834905026.index
2476336119.index
3456540221.index
3423821804.index
3936798536.index
4014837212.index
2980966767.index
1922132374.index
894662118.index
2838927341.index
355297157.index
1865797976.index
1391678467.index
3510221044.index
3286967921.index
3414171311.index
481263282.index
3029931412.index
3392872465.index
4131596127.index
2427678751.index
3369409370.index
791218163.index
3973456593.index
2258048476.index
780193863.index
3382829961.index
3619293368.index
351086591.index
1959503093.index
4192409945.index
1990280824.index
2207823726.index
2771001381.index
2948961768.index
3106978651.index
3028147809.index
596709394.index
3136518244.index
1651917406.index
1763089656.index
1920730413.index
1202593297.index
2571972341.index
902715381.index
1635726174.index
2052816275.index
3252848357.index
704252657.index
2816331140.index
1701978839.index
1847649260.index
4136133425.index
